frame	time(s)	nformants	F1(Hz)	B1(Hz)	F2(Hz)	B2(Hz)	F3(Hz)	B3(Hz)	F4(Hz)	B4(Hz)	F5(Hz)	B5(Hz)	F6(Hz)	B6(Hz)	F7(Hz)	B7(Hz)	F8(Hz)	B8(Hz)
1	0.025249	8	378.861	259.107	1243.005	477.996	2008.002	355.784	2539.528	728.776	3169.791	557.850	3535.619	944.618	4308.921	336.188	4918.275	380.152
2	0.030249	7	424.868	318.129	1255.113	350.276	1976.958	399.391	2784.832	617.825	3194.308	512.866	4174.995	522.134	4752.457	457.463	--undefined--	--undefined--
3	0.035249	8	467.924	324.015	1208.299	346.127	1891.293	391.455	2701.226	681.126	3026.129	786.666	3862.329	686.198	4668.779	258.223	4888.073	1842.026
4	0.040249	8	568.703	554.778	954.944	902.256	1797.425	405.924	2462.068	969.625	2794.809	449.231	3748.853	309.172	4455.540	311.048	4879.168	528.707
5	0.045249	8	429.235	460.530	1010.532	596.417	1851.014	271.457	2628.990	552.387	3056.672	1077.624	3804.333	439.401	4426.008	286.826	5087.349	1244.941
6	0.050249	7	312.622	350.647	1114.903	357.453	1832.706	282.179	2553.879	448.022	3305.153	423.889	3966.810	445.508	4474.346	254.419	--undefined--	--undefined--
7	0.055249	8	319.016	444.887	1074.992	337.404	1680.829	316.721	2476.673	206.598	3230.305	287.617	3790.696	575.085	4410.845	224.695	5099.424	661.253
8	0.060249	8	429.834	376.336	1081.560	320.836	1775.354	266.502	2511.110	390.766	3164.891	449.464	3707.170	529.427	4311.838	353.652	4931.640	257.921
9	0.065249	8	401.614	249.162	1115.550	256.883	1874.701	193.496	2647.481	387.109	3287.795	594.791	3713.052	1022.423	4098.314	425.888	4901.497	158.016
10	0.070249	8	340.251	282.176	1147.781	388.559	1827.328	295.544	2486.031	267.815	3072.308	340.196	3763.344	317.700	4334.312	421.595	4925.218	269.997
11	0.075249	8	346.696	542.680	1099.448	775.066	1785.407	617.964	2339.068	462.774	2910.781	191.970	3744.898	194.120	4375.449	261.585	4949.134	407.962
12	0.080249	8	382.177	484.425	1068.685	798.760	2057.462	457.340	2144.124	1271.118	2907.997	203.724	3716.766	281.130	4358.188	326.389	5132.401	661.070
13	0.085249	8	406.355	368.027	1391.732	650.149	1674.023	2392.108	2093.032	408.183	2981.796	412.662	3670.411	445.545	4380.563	440.571	5158.809	758.574
14	0.090249	8	447.599	408.141	1384.654	1581.184	1515.572	634.933	2245.084	413.958	3311.806	718.445	3607.593	678.346	4567.604	658.881	4961.304	964.707
15	0.095249	8	329.347	852.830	939.440	667.598	1775.100	589.246	2288.219	400.318	3247.998	551.596	3606.313	647.109	4385.868	513.121	4925.930	361.236
16	0.100249	8	438.579	829.970	1135.224	728.182	2032.130	450.081	2087.778	2805.891	2844.190	471.891	3501.550	602.069	4239.849	287.206	4938.094	296.358
17	0.105249	8	542.435	304.158	1249.078	369.756	1949.572	504.831	2780.708	547.634	2833.293	1306.827	3633.423	756.463	4249.388	343.923	4930.172	319.485
18	0.110249	8	541.761	313.731	1176.090	494.767	1803.798	770.341	2387.060	453.687	3014.728	469.931	3821.297	296.820	4385.563	563.842	4939.211	411.588
19	0.115249	8	545.955	421.262	1008.624	517.309	1807.690	393.967	2315.795	409.387	3010.404	380.672	3813.096	195.451	4407.670	395.812	4940.167	298.952
20	0.120249	8	429.784	450.251	1034.270	463.763	1799.491	293.845	2316.980	319.102	3070.453	489.868	3786.318	305.325	4367.797	312.232	4958.511	331.964
21	0.125249	8	267.545	691.854	1033.753	515.450	1809.960	540.463	2310.617	431.272	3034.222	391.709	3805.486	470.388	4283.719	380.717	4927.305	360.242
22	0.130249	7	887.494	641.250	1552.226	932.677	2073.125	484.054	2879.912	302.709	3693.399	481.145	4253.442	205.275	4959.268	260.214	--undefined--	--undefined--
23	0.135249	7	570.797	415.563	1381.787	365.500	2082.737	346.130	2773.979	263.213	3671.618	371.780	4332.903	222.102	4917.091	260.216	--undefined--	--undefined--
24	0.140249	8	481.971	207.920	1320.806	340.540	2149.767	652.617	2403.845	3123.789	2830.033	407.271	3793.876	640.096	4476.397	859.996	4751.061	437.259
25	0.145249	8	480.724	151.656	1262.383	238.977	2095.786	565.142	2923.925	450.009	3039.060	3481.348	3807.220	990.709	4405.978	1708.209	4756.896	366.968
26	0.150249	8	486.837	199.148	1228.565	279.841	2054.927	393.443	2266.283	4713.730	2913.805	544.181	3637.132	497.810	4444.022	730.955	4848.264	572.503
27	0.155249	7	505.525	458.437	1183.382	451.332	1954.451	340.867	2739.251	334.500	3589.936	311.371	4057.613	710.791	4731.747	287.021	--undefined--	--undefined--
28	0.160249	7	441.376	343.060	1237.047	426.835	1928.713	236.189	2712.764	269.840	3609.887	365.759	4086.655	647.216	4734.075	310.366	--undefined--	--undefined--
29	0.165249	7	424.772	263.756	1362.355	343.243	1949.525	318.547	2666.484	410.149	3689.821	269.071	4315.975	1294.439	4582.873	433.426	--undefined--	--undefined--
30	0.170249	8	424.148	930.579	1169.091	2302.864	1448.735	529.788	2179.341	668.912	2833.021	1141.918	3674.642	251.354	4415.014	337.001	4978.077	570.432
31	0.175249	8	266.368	651.713	1063.275	264.501	1744.811	304.398	2492.198	337.056	3449.891	404.387	3992.521	1049.044	4367.418	625.326	4938.939	650.552
32	0.180249	7	301.227	904.423	1059.238	293.245	1734.359	339.256	2544.901	370.227	3365.940	244.748	4115.256	356.262	4784.754	414.717	--undefined--	--undefined--
33	0.185249	7	479.113	779.799	991.585	533.180	1670.040	259.338	2539.891	481.371	3279.988	305.070	4100.082	618.625	4802.458	469.109	--undefined--	--undefined--
34	0.190249	8	416.331	626.569	901.179	534.512	1659.273	230.949	2496.886	620.917	3200.379	418.522	3775.056	947.987	4633.091	404.609	5229.709	1275.424
35	0.195249	7	250.192	987.118	898.192	414.027	1706.970	369.459	2366.259	655.323	3187.041	205.932	3905.712	533.619	4696.776	271.058	--undefined--	--undefined--
36	0.200249	8	260.926	835.075	965.890	562.799	1920.846	667.048	2267.999	1066.308	3104.251	385.218	3910.420	841.573	4469.904	855.592	4972.940	858.530
37	0.205249	7	447.372	300.073	1240.090	357.699	2132.021	368.252	2906.517	352.864	3801.040	762.045	4164.085	1483.993	4599.006	578.145	--undefined--	--undefined--
38	0.210249	7	438.297	221.449	1218.349	328.470	1975.745	415.124	2892.982	340.988	3814.658	699.832	3891.767	2275.274	4611.949	330.228	--undefined--	--undefined--
39	0.215249	7	417.416	629.979	1125.666	416.445	1717.514	491.665	2472.490	661.568	3081.937	462.345	3851.554	543.507	4604.905	306.967	--undefined--	--undefined--
40	0.220249	8	281.723	926.132	1079.296	544.212	1669.098	442.172	2411.921	491.195	3120.129	398.701	3804.259	569.862	4386.310	459.001	4936.340	502.607
41	0.225249	8	323.792	825.879	996.549	1617.920	1584.633	387.250	2420.009	513.873	3129.757	470.165	3690.699	591.525	4278.634	444.028	4913.216	541.276
42	0.230249	8	267.209	634.111	1199.518	1098.009	1625.864	505.427	2471.216	508.466	3350.300	349.700	3752.640	1144.284	4264.156	736.256	4898.697	427.856
43	0.235249	8	305.525	591.769	1163.256	548.154	1852.251	620.778	2512.464	583.497	3349.219	488.317	3959.040	690.208	4401.254	1778.914	4924.997	329.149
44	0.240249	7	908.914	455.863	1433.654	1170.259	2319.209	577.748	2935.084	524.562	3907.803	312.939	4810.160	304.583	4901.547	2163.587	--undefined--	--undefined--
45	0.245249	7	866.838	366.152	1475.258	752.040	2439.022	402.985	3145.654	609.947	4045.905	479.639	4738.605	264.493	5214.781	3755.565	--undefined--	--undefined--
46	0.250249	7	834.703	850.891	1423.133	689.421	2442.762	584.136	2967.650	1082.069	3618.151	981.637	4310.760	832.151	4779.389	520.571	--undefined--	--undefined--
47	0.255249	7	373.612	569.753	1423.643	453.281	1986.248	465.661	2838.122	303.022	3564.598	354.540	4292.973	396.241	4961.778	748.384	--undefined--	--undefined--
48	0.260249	7	581.194	324.903	1409.047	265.727	1956.771	284.020	2875.592	205.869	3526.784	269.545	4300.216	264.342	4936.720	1078.051	--undefined--	--undefined--
49	0.265249	7	614.972	285.032	1408.760	225.785	2060.458	404.278	2849.362	249.454	3475.512	379.901	4291.917	267.177	4992.253	667.811	--undefined--	--undefined--
50	0.270249	7	803.709	371.087	1440.923	302.934	2145.260	421.711	2846.694	255.858	3510.199	377.584	4270.306	356.816	4859.436	556.628	--undefined--	--undefined--
51	0.275249	7	1012.203	478.511	1481.536	733.804	2043.849	490.895	2838.216	293.884	3461.745	456.090	4123.006	502.128	4690.307	471.321	--undefined--	--undefined--
52	0.280249	7	1109.505	533.389	1275.074	1509.972	2109.866	545.838	2729.916	315.138	3233.133	589.581	4058.756	291.575	4605.926	297.404	--undefined--	--undefined--
53	0.285249	7	969.536	1847.675	1005.515	668.178	2075.089	428.653	2759.238	215.665	3221.095	395.775	4100.608	274.586	4696.792	249.110	--undefined--	--undefined--
54	0.290249	7	186.533	2038.667	1049.745	825.355	2018.252	468.550	2848.754	137.610	3372.601	457.615	4121.921	514.131	4706.660	220.807	--undefined--	--undefined--
55	0.295249	7	779.751	744.444	1998.621	553.750	2543.202	3743.579	2853.244	112.131	3632.506	532.310	4515.670	327.581	4847.482	1059.633	--undefined--	--undefined--
56	0.300249	7	704.840	508.140	2003.140	409.209	2794.771	1894.497	2808.510	110.055	3638.947	341.300	4485.579	169.572	4913.929	494.516	--undefined--	--undefined--
57	0.305249	7	624.019	1144.957	1965.649	808.695	2772.407	153.962	2933.300	1689.142	3633.494	371.722	4502.820	260.397	4857.161	545.651	--undefined--	--undefined--
58	0.310249	7	382.867	709.638	1519.432	2643.734	2173.227	871.139	2788.903	186.987	3396.531	711.774	4032.154	537.588	4683.469	248.864	--undefined--	--undefined--
59	0.315249	6	898.054	807.499	2145.777	465.372	2818.064	130.561	3324.284	507.530	4046.984	174.938	4697.805	94.210	--undefined--	--undefined--	--undefined--	--undefined--
60	0.320249	6	993.093	403.951	2134.749	420.529	2805.295	80.467	3309.325	459.229	4067.073	173.693	4693.932	87.933	--undefined--	--undefined--	--undefined--	--undefined--
61	0.325249	8	94.998	213.565	1029.984	242.619	2068.530	489.045	2799.527	91.108	3163.206	398.903	4048.328	434.490	4665.832	255.211	4925.459	1233.419
62	0.330249	8	132.486	270.869	1059.593	300.193	2132.370	869.066	2816.207	101.181	3114.747	593.767	3881.437	527.356	4600.650	351.854	4926.819	612.830
63	0.335249	8	186.159	200.189	1111.877	609.831	2163.429	556.594	2818.222	108.688	3240.257	1216.472	3833.629	575.506	4572.969	297.504	4968.198	709.832
64	0.340249	8	160.894	120.475	1169.971	593.222	2148.648	443.735	2765.555	110.145	3289.995	1135.983	3821.397	523.394	4485.305	238.851	5023.411	536.528
65	0.345249	8	159.464	92.851	1049.105	614.670	2111.056	413.929	2764.315	87.738	3251.646	840.188	3917.600	503.997	4500.990	322.152	4930.613	607.583
66	0.350249	8	168.344	173.191	902.769	785.047	2154.176	435.462	2809.462	115.359	3039.506	1273.979	3814.025	383.725	4418.415	327.032	4864.143	258.759
67	0.355249	8	149.950	189.269	831.198	753.301	2221.325	388.193	2850.930	149.273	3019.885	1324.253	3771.282	321.100	4401.169	316.479	4871.089	195.296
68	0.360249	8	102.641	244.170	827.255	580.221	2105.204	432.197	2907.074	158.382	2958.160	1168.967	3743.535	266.869	4426.079	267.300	4900.167	238.756
69	0.365249	8	59.351	290.083	832.805	524.012	2093.326	307.439	2826.068	98.087	3548.449	1483.180	3598.254	541.441	4422.089	277.682	4883.924	275.803
70	0.370249	8	136.413	161.618	919.968	544.547	2167.735	231.198	2810.364	75.946	3507.662	589.906	4036.961	1612.542	4393.788	262.534	4874.237	274.673
71	0.375249	8	121.079	139.555	1139.340	689.233	2214.978	380.353	2853.414	85.607	3611.466	563.950	3725.961	2616.421	4414.392	336.187	4844.832	209.762
72	0.380249	6	1153.315	822.750	2195.469	528.708	2852.471	99.938	3549.732	389.566	4308.428	530.758	4772.394	159.078	--undefined--	--undefined--	--undefined--	--undefined--
73	0.385249	7	531.093	737.837	1345.596	2676.858	2123.280	543.136	2804.288	112.153	3460.545	340.700	4249.496	303.535	4716.793	223.133	--undefined--	--undefined--
74	0.390249	7	270.123	495.076	1779.620	1653.692	2170.549	500.262	2832.257	99.450	3480.970	308.574	4301.694	193.466	4691.357	353.199	--undefined--	--undefined--
75	0.395249	8	169.695	107.667	880.469	872.418	2207.831	245.123	2842.790	52.502	3577.112	1762.724	3633.178	391.373	4368.820	198.435	5033.173	568.648
76	0.400249	8	144.919	178.553	737.158	631.157	2177.368	185.525	2828.376	60.165	3277.122	814.063	3714.934	367.964	4457.943	228.004	5013.060	338.084
77	0.405249	8	185.434	444.438	537.311	764.662	2147.259	199.857	2802.632	119.230	3578.674	406.259	3609.389	1303.429	4503.370	329.170	4908.969	602.556
78	0.410249	8	308.385	106.045	793.857	1222.878	2143.932	148.208	2788.139	200.289	3138.274	1254.115	3591.218	213.124	4535.435	383.847	4893.040	625.815
79	0.415249	7	320.996	114.643	2132.094	180.454	2181.557	2008.279	2800.402	303.130	3108.620	979.291	3624.637	146.254	4667.173	282.589	--undefined--	--undefined--
80	0.420249	7	327.267	85.668	2073.518	1085.163	2134.548	166.793	2801.864	214.836	3225.341	659.807	3635.226	120.307	4590.531	459.829	--undefined--	--undefined--
81	0.425249	7	330.788	72.836	2108.616	146.807	2320.560	1235.348	2823.216	217.383	3266.864	887.713	3614.794	167.601	4603.471	586.020	--undefined--	--undefined--
82	0.430249	7	329.545	72.252	2103.684	120.730	2395.878	1436.505	2793.768	211.332	3189.534	771.987	3613.885	170.082	4467.898	631.725	--undefined--	--undefined--
83	0.435249	7	322.777	83.522	2100.692	115.421	2432.561	1360.353	2769.020	195.947	3211.814	611.243	3632.530	158.523	4531.769	1175.525	--undefined--	--undefined--
84	0.440249	7	316.225	80.587	2095.342	109.602	2583.236	1177.412	2770.990	203.260	3270.458	544.239	3653.600	155.674	5045.612	2378.745	--undefined--	--undefined--
85	0.445249	6	307.632	78.133	2091.989	94.282	2722.531	1062.880	2762.066	221.947	3265.993	559.938	3658.527	142.270	--undefined--	--undefined--	--undefined--	--undefined--
86	0.450249	7	301.557	78.753	2092.504	81.868	2742.398	225.148	2806.317	1271.713	3175.393	526.021	3650.153	140.586	4815.436	2399.054	--undefined--	--undefined--
87	0.455249	7	292.882	66.122	2098.646	66.899	2689.339	1612.882	2741.153	192.203	3138.292	427.558	3641.612	124.334	4547.457	1819.912	--undefined--	--undefined--
88	0.460249	7	284.126	62.930	2104.811	59.357	2543.854	1982.528	2744.695	174.361	3119.701	377.456	3638.555	136.283	4625.324	1827.494	--undefined--	--undefined--
89	0.465249	7	279.649	56.246	2119.301	53.719	2368.170	2148.998	2759.603	139.399	3157.075	349.359	3658.870	149.012	4785.640	1867.575	--undefined--	--undefined--
90	0.470249	7	279.441	50.332	2125.034	56.902	2286.643	1982.939	2763.328	129.875	3167.054	308.522	3670.591	124.483	5459.176	1221.198	--undefined--	--undefined--
91	0.475249	7	279.283	49.065	2140.768	80.724	2150.218	1635.693	2780.464	159.709	3157.855	273.045	3690.564	136.136	5094.483	534.036	--undefined--	--undefined--
92	0.480249	7	278.595	44.536	2059.775	1717.566	2151.406	85.766	2801.311	180.805	3195.690	218.802	3692.714	127.479	5066.003	410.795	--undefined--	--undefined--
93	0.485249	7	279.875	42.816	1934.115	1731.563	2149.886	92.150	2834.651	264.651	3199.205	190.385	3687.323	106.433	5059.148	492.342	--undefined--	--undefined--
94	0.490249	7	280.869	43.861	2128.828	94.863	2271.918	2202.896	2817.808	235.483	3182.305	162.952	3674.314	219.067	5145.933	649.956	--undefined--	--undefined--
95	0.495249	7	281.070	42.195	2140.479	87.167	2717.665	1499.480	2819.222	270.695	3198.865	179.246	3697.198	485.534	5123.414	491.921	--undefined--	--undefined--
96	0.500249	8	174.131	1743.913	279.677	39.884	2150.772	105.218	2762.301	295.767	3164.212	1787.728	3170.621	224.544	3758.588	428.938	5117.004	730.135
97	0.505249	7	276.695	35.646	403.086	1771.456	2153.339	114.316	2745.666	228.487	3154.406	186.505	3678.065	242.389	4465.663	1617.166	--undefined--	--undefined--
98	0.510249	8	276.494	33.020	424.979	1783.664	2175.811	101.875	2751.154	222.734	3165.345	158.982	3690.364	153.064	3915.012	5598.540	5138.286	829.627
99	0.515249	7	275.611	32.159	401.685	1948.585	2189.711	119.388	2755.334	251.105	3167.872	156.025	3690.842	156.897	5094.178	696.578	--undefined--	--undefined--
100	0.520249	8	274.322	31.199	440.786	1645.158	2184.674	140.025	2769.230	202.856	3175.874	132.944	3677.235	172.570	4287.517	4559.662	5177.030	1100.726
101	0.525249	8	272.821	28.304	539.025	1196.317	2183.056	132.738	2781.346	188.731	3188.975	123.443	3301.119	2283.309	3692.740	136.830	5009.820	626.358
102	0.530249	8	271.890	27.580	535.628	1256.772	2197.679	120.469	2798.961	189.956	3188.688	125.836	3485.543	3043.550	3674.526	122.750	5040.128	695.784
103	0.535249	7	271.530	28.232	527.217	1621.030	2215.302	92.160	2812.036	201.905	3187.357	137.166	3665.683	125.531	4515.630	1232.394	--undefined--	--undefined--
104	0.540249	7	271.295	26.826	854.492	2009.012	2223.168	112.942	2830.912	242.614	3194.013	160.011	3670.627	140.014	4459.836	1379.947	--undefined--	--undefined--
105	0.545249	7	269.606	26.388	585.003	1772.298	2208.126	134.732	2840.054	316.006	3197.787	205.603	3714.742	260.324	4213.498	1734.052	--undefined--	--undefined--
106	0.550249	7	267.860	26.551	598.998	1114.011	2202.769	110.304	2824.177	353.281	3208.001	256.945	3764.554	368.048	4006.873	1887.444	--undefined--	--undefined--
107	0.555249	8	266.424	25.672	593.386	831.263	2200.838	97.630	2792.251	422.405	3223.021	284.608	3308.753	1498.975	3819.180	404.714	5041.428	972.766
108	0.560249	8	265.257	26.005	608.395	762.432	2196.682	96.255	2747.585	448.926	3198.638	291.635	3457.398	1094.927	3877.217	598.941	5121.315	989.556
109	0.565249	7	266.018	26.115	621.259	842.507	2188.307	105.961	2715.577	436.992	3179.567	331.491	3618.860	926.761	3926.334	697.997	--undefined--	--undefined--
110	0.570249	7	267.050	26.084	606.417	880.790	2185.577	102.243	2678.490	381.050	3122.341	370.757	3634.661	453.415	4025.135	753.014	--undefined--	--undefined--
111	0.575249	7	267.447	27.527	610.296	1003.705	2191.902	119.287	2665.327	372.174	3113.901	366.050	3638.126	312.235	4067.129	792.273	--undefined--	--undefined--
112	0.580249	7	268.795	28.505	598.920	1181.396	2191.760	104.108	2639.328	283.185	3140.068	258.038	3578.252	412.235	4018.599	555.517	--undefined--	--undefined--
113	0.585249	7	268.918	28.226	581.834	964.797	2188.224	83.214	2641.966	274.148	3179.333	262.286	3479.546	1329.625	3761.258	394.735	--undefined--	--undefined--
114	0.590249	8	268.539	28.680	587.846	915.823	2189.816	83.913	2656.201	324.950	3106.214	1396.085	3211.604	275.695	3764.780	261.043	5076.334	787.731
115	0.595249	8	269.556	29.095	595.069	973.503	2186.338	85.665	2652.690	305.717	3066.308	1854.249	3227.339	231.394	3768.859	241.423	5101.921	696.579
116	0.600249	8	271.618	31.343	576.179	1167.886	2184.687	86.618	2643.280	258.261	2929.234	2998.467	3217.465	185.329	3760.393	236.981	5073.725	527.414
117	0.605249	8	272.990	34.544	568.913	1367.600	2182.509	91.990	2541.565	3894.352	2618.844	252.173	3214.373	233.646	3766.064	292.396	5017.479	427.899
118	0.610249	7	276.325	36.077	502.114	3393.640	2184.465	95.287	2620.203	195.505	3191.694	228.749	3757.619	248.271	5034.349	346.050	--undefined--	--undefined--
119	0.615249	7	278.618	38.192	1401.369	4236.977	2168.718	127.727	2618.930	180.893	3195.640	198.535	3775.077	227.110	5083.071	420.766	--undefined--	--undefined--
120	0.620249	8	278.829	41.195	342.597	1633.445	2110.162	133.704	2576.130	170.757	3001.979	3281.291	3187.673	232.942	3748.241	231.071	5119.832	667.432
121	0.625249	8	277.949	39.592	462.180	1406.978	2064.550	108.696	2545.547	152.930	3177.842	198.466	3507.248	2465.653	3744.515	333.033	5141.268	1119.576
122	0.630249	8	276.194	40.627	513.824	1195.445	2028.874	82.302	2517.701	127.274	3192.870	161.503	3255.582	1441.558	3861.069	537.690	4959.206	586.946
123	0.635249	7	248.428	3524.543	277.523	49.269	2010.715	83.193	2504.323	118.399	3181.507	122.119	3843.427	323.626	4799.349	494.982	--undefined--	--undefined--
124	0.640249	7	267.286	57.778	768.447	859.905	1973.484	87.776	2466.627	107.748	3154.179	163.294	3843.889	212.453	4693.635	417.932	--undefined--	--undefined--
125	0.645249	7	250.545	68.549	838.897	529.970	1959.637	111.369	2474.235	104.187	3176.656	226.553	3858.611	224.889	4608.790	444.739	--undefined--	--undefined--
126	0.650249	7	233.787	78.066	686.926	747.336	1957.346	231.186	2477.523	205.902	3267.954	341.487	3949.532	408.782	4572.623	418.389	--undefined--	--undefined--
127	0.655249	8	246.804	71.686	440.316	570.887	1800.346	256.131	2369.524	175.223	3220.371	370.279	3752.646	457.592	4472.102	300.790	5365.288	1286.623
128	0.660249	8	253.254	55.862	443.262	707.980	1699.701	279.751	2427.241	233.051	3133.576	474.270	3636.846	435.635	4447.343	304.794	5031.444	726.321
